time,ref_x,x,ref_y,y,ref_z,z,ref_u,u,ref_v,v,ref_w,w,ref_phi,phi,ref_theta,theta,ref_psi,psi,thrust
0,-1.3,-1.32956,0.3,0.475672,1,0.986622,0,-0.131495,-1.5,-0.45269,0,-0.0824137,-0.0591559,-0.0268181,0.033668,0.0311281,2.16963e-19,-0.0166211,0.212425
0.05,-1.29812,-1.33647,0.225031,0.456567,1,0.983384,0.074969,-0.123239,-1.49812,-0.433517,0,-0.0724514,0.246981,-0.0153746,0.182944,0.0279887,0.02,-0.0151851,0.21088
0.1,-1.29251,-1.34188,0.15025,0.440362,1,0.980884,0.14975,-0.119381,-1.49251,-0.372076,0,-0.0670938,0.272765,0.0365264,0.18623,0.0791673,0.07,-0.0133073,0.21067
0.15,-1.28316,-1.3456,0.075843,0.423,1,0.977912,0.224157,-0.0538406,-1.48316,-0.370175,0,-0.0874488,0.283944,0.164384,0.176298,0.130681,0.12,0.00163199,0.214794
0.2,-1.2701,-1.3475,0.001996,0.403225,1,0.973304,0.298004,-0.000267006,-1.4701,-0.433555,0,-0.112465,0.28552,0.199129,0.169382,0.147408,0.17,0.0127883,0.219709
0.25,-1.25337,-1.34711,-0.071106,0.389487,1,0.969994,0.371106,0.0858359,-1.45337,-0.52295,0,-0.124496,0.262073,0.226913,0.150689,0.157808,0.22,0.0262112,0.227555
0.3,-1.233,-1.34163,-0.14328,0.352519,1,0.962238,0.44328,0.152299,-1.43301,-0.609263,0,-0.125366,0.239128,0.258513,0.134716,0.164964,0.27,0.0549062,0.230439
0.35,-1.20906,-1.33094,-0.214347,0.310772,1,0.956034,0.514347,0.256248,-1.40906,-0.73917,0,-0.106841,0.229467,0.261547,0.12987,0.165624,0.32,0.0851628,0.229951
0.4,-1.18159,-1.31653,-0.284128,0.266728,1,0.952061,0.584128,0.327087,-1.38159,-0.825132,0,-0.0832476,0.208882,0.256245,0.123438,0.158008,0.37,0.115566,0.226429
0.45,-1.15067,-1.29887,-0.352448,0.219694,1,0.949988,0.652448,0.429613,-1.35067,-0.95294,0,-0.0427451,0.197447,0.248777,0.123016,0.15784,0.42,0.149518,0.222552
0.5,-1.11637,-1.27708,-0.419138,0.167593,1,0.949225,0.719138,0.487804,-1.31637,-1.00624,0,-0.0243701,0.17983,0.235198,0.123165,0.151566,0.47,0.181738,0.218045
0.55,-1.07879,-1.26366,-0.484031,0.137871,1,0.949356,0.784031,0.604013,-1.27879,-1.12564,0,0.00735886,0.167244,0.226541,0.12613,0.15077,0.52,0.20046,0.214511
0.6,-1.038,-1.22132,-0.546964,0.0505959,1,0.95061,0.846964,0.728111,-1.238,-1.23114,0,0.0205845,0.136733,0.203446,0.127826,0.144667,0.57,0.25623,0.211009
0.65,-0.994126,-1.18785,-0.60778,-0.0130229,1,0.951863,0.90778,0.775501,-1.19413,-1.26294,0,0.027417,0.115294,0.184425,0.130859,0.143806,0.62,0.295402,0.208381
0.7,-0.947263,-1.14296,-0.666327,-0.0925372,1,0.952996,0.966327,0.893379,-1.14726,-1.33358,0,0.0192101,0.10047,0.157699,0.137459,0.141638,0.67,0.34162,0.207946
0.75,-0.897533,-1.10162,-0.722458,-0.160553,1,0.953512,1.02246,0.936876,-1.09753,-1.35495,0,0.0187484,0.0801148,0.140677,0.141558,0.141331,0.72,0.384335,0.207625
0.8,-0.84506,-1.0571,-0.776034,-0.229595,1,0.953357,1.07603,1.04617,-1.04506,-1.38789,0,0.000553838,0.0658078,0.117837,0.149742,0.140601,0.77,0.426138,0.208133
0.85,-0.789975,-1.00948,-0.826921,-0.298781,1,0.952364,1.12692,1.09343,-0.989975,-1.40321,0,-0.00752538,0.051165,0.0999796,0.15308,0.138829,0.82,0.470333,0.20986
0.9,-0.732415,-0.96246,-0.87499,-0.363161,1,0.950941,1.17499,1.18631,-0.932415,-1.40516,0,-0.0168723,0.0372302,0.0799915,0.1623,0.141526,0.87,0.511225,0.211026
0.95,-0.672525,-0.90926,-0.920123,-0.431496,1,0.949262,1.22012,1.23258,-0.872525,-1.4002,0,-0.0224187,0.024545,0.0625552,0.168035,0.143655,0.92,0.554658,0.211536
1,-0.610453,-0.838227,-0.962206,-0.51579,1,0.947239,1.26221,1.32081,-0.810453,-1.37068,0,-0.0168533,0.0187424,0.0344395,0.17732,0.146725,0.97,0.613761,0.211063
1.05,-0.546357,-0.783675,-1.00114,-0.575898,1,0.945433,1.30113,1.35136,-0.746357,-1.34238,0,-0.0155701,0.0114223,0.024909,0.18252,0.149945,1.02,0.652655,0.210907
1.1,-0.480394,-0.72288,-1.03681,-0.637782,1,0.94404,1.33681,1.42951,-0.680394,-1.28497,0,-0.0102562,0.00775665,0.00997532,0.192435,0.155502,1.07,0.698784,0.210368
1.15,-0.412731,-0.655993,-1.06915,-0.700407,1,0.942376,1.36915,1.45488,-0.612731,-1.25273,0,-0.00918007,0.00446723,-0.00226648,0.195606,0.163616,1.12,0.747909,0.210695
1.2,-0.343537,-0.591693,-1.09806,-0.755549,1,0.94088,1.39806,1.51688,-0.543537,-1.1636,0,-0.0127341,0.0012137,-0.0100292,0.203748,0.173158,1.17,0.793464,0.211191
1.25,-0.272984,-0.525505,-1.12348,-0.807027,1,0.939412,1.42348,1.57227,-0.472984,-1.06226,0,-0.0138522,-0.00347032,-0.0221877,0.20567,0.171185,1.22,0.841343,0.212187
1.3,-0.201248,-0.462796,-1.14534,-0.851271,1,0.938122,1.44534,1.58355,-0.401248,-1.01067,0,-0.0112512,-0.000832803,-0.0270878,0.200755,0.172649,1.27,0.882626,0.21216
1.35,-0.12851,-0.385455,-1.16359,-0.9002,1,0.936648,1.46358,1.62234,-0.32851,-0.890123,0,-0.00870626,0.000701279,-0.0305804,0.207255,0.180416,1.32,0.936791,0.212344
1.4,-0.054951,-0.307164,-1.17817,-0.943523,1,0.935303,1.47818,1.62534,-0.254951,-0.837967,0,-0.00751,0.00366794,-0.0328577,0.204499,0.18363,1.37,0.990674,0.212474
1.45,0.019246,-0.23708,-1.18907,-0.976714,1,0.93446,1.48907,1.64208,-0.180754,-0.723701,0,-0.00511156,0.00793249,-0.0390586,0.211557,0.184722,1.42,1.03729,0.212422
1.5,0.093894,-0.1671,-1.19624,-1.00582,1,0.933488,1.49624,1.65153,-0.106106,-0.652988,0,-0.00104422,0.01039,-0.0337374,0.205377,0.188335,1.47,1.08196,0.212281
1.55,0.168808,-0.0965891,-1.19968,-1.02995,1,0.932556,1.49968,1.65165,-0.031192,-0.506564,0,0.00102005,0.0135678,-0.0336737,0.207037,0.197732,1.52,1.13196,0.212639
1.6,0.243799,-0.0261888,-1.19936,-1.04928,1,0.931931,1.49936,1.65968,0.043799,-0.450554,0,0.00140647,0.0160747,-0.0326081,0.20166,0.201993,1.57,1.17854,0.212631
1.65,0.318681,0.0442646,-1.1953,-1.0641,1,0.931243,1.4953,1.64391,0.118681,-0.296802,0,0.00241313,0.0194438,-0.0229144,0.202154,0.201856,1.62,1.22605,0.212246
1.7,0.393267,0.119534,-1.1875,-1.07451,1,0.930728,1.4875,1.63422,0.193267,-0.171499,0,0.00355129,0.0230851,-0.0226267,0.194545,0.197644,1.67,1.27571,0.212557
1.75,0.467369,0.199234,-1.17598,-1.08009,1,0.930317,1.47598,1.62189,0.267369,-0.0911737,0,0.0062815,0.0310614,-0.0173678,0.196919,0.195141,1.72,1.32819,0.212255
1.8,0.540803,0.268954,-1.16077,-1.08044,1,0.930158,1.46077,1.60277,0.340803,0.0311999,0,0.00627962,0.0290842,-0.00641419,0.186916,0.196745,1.77,1.37595,0.211608
1.85,0.613385,0.338553,-1.14191,-1.07657,1,0.929895,1.44191,1.59263,0.413385,0.0855883,0,0.00936416,0.0324478,-0.00345875,0.179156,0.192392,1.82,1.42329,0.211445
1.9,0.684934,0.407643,-1.11945,-1.06868,1,0.929348,1.41945,1.56217,0.484934,0.222863,0,0.0065114,0.0298898,0.00426522,0.179795,0.19415,1.87,1.47262,0.21157
1.95,0.755271,0.476546,-1.09344,-1.05643,1,0.929009,1.39344,1.55698,0.555271,0.277429,0,0.00390763,0.0307807,0.0104492,0.171862,0.191419,1.92,1.51611,0.212138
2,0.82422,0.558682,-1.06395,-1.03678,1,0.928387,1.36395,1.52165,0.62422,0.414456,0,-0.00634534,0.0305302,0.0110793,0.171772,0.181346,1.97,1.57039,0.212333
2.05,0.891609,0.626421,-1.03104,-1.01623,1,0.927598,1.33104,1.49571,0.691609,0.48298,0,-0.0063744,0.0347958,0.0109564,0.15921,0.180236,2.02,1.61914,0.213062
2.1,0.957269,0.693528,-0.994814,-0.992163,1,0.926933,1.29481,1.45971,0.757269,0.591688,0,-0.0100981,0.0301362,0.00811583,0.164491,0.176947,2.07,1.66309,0.213369
2.15,1.02104,0.759182,-0.955348,-0.964709,1,0.925945,1.25535,1.43839,0.821036,0.635967,0,-0.00661508,0.0292301,0.0141316,0.158759,0.16862,2.12,1.7047,0.212952
2.2,1.08275,0.820029,-0.912745,-0.935874,1,0.92551,1.21274,1.38677,0.882752,0.747233,0,-0.00166438,0.0245959,0.0112492,0.15125,0.166654,2.17,1.75216,0.212307
2.25,1.14226,0.887867,-0.86711,-0.900238,1,0.925228,1.16711,1.33888,0.94226,0.851561,0,0.0134817,0.0242744,0.0181248,0.15419,0.163207,2.22,1.80059,0.211226
2.3,1.19941,0.962933,-0.818558,-0.855531,1,0.926031,1.11856,1.30998,0.999414,0.896604,0,0.0159562,0.0221085,0.0122868,0.151658,0.162004,2.27,1.85979,0.209922
2.35,1.25407,1.02362,-0.76721,-0.815424,1,0.926765,1.06721,1.27222,1.05407,0.947141,0,0.0244767,0.026871,0.0112648,0.155216,0.159576,2.32,1.90408,0.208825
2.4,1.30609,1.08295,-0.713195,-0.772518,1,0.927862,1.0132,1.21584,1.10609,1.02517,0,0.0293865,0.0195113,0.0120796,0.154181,0.161195,2.37,1.95053,0.207939
2.45,1.35535,1.14072,-0.656647,-0.727011,1,0.929055,0.956647,1.15689,1.15535,1.11113,0,0.0286078,0.0182436,0.0110033,0.159667,0.161999,2.42,1.99653,0.207589
2.5,1.40172,1.19653,-0.597708,-0.678973,1,0.930003,0.897708,1.12372,1.20172,1.14026,0,0.0305234,0.0164154,0.0108699,0.158753,0.160048,2.47,2.04213,0.207552
2.55,1.44508,1.2507,-0.536526,-0.628627,1,0.931508,0.836526,1.04909,1.24508,1.21553,0,0.0367369,0.0121293,0.00300534,0.165438,0.160565,2.52,2.08881,0.206815
2.6,1.48533,1.30284,-0.473252,-0.575978,1,0.932995,0.773252,1.01119,1.28533,1.25499,0,0.0376739,0.0103422,0.00366694,0.162846,0.163176,2.57,2.13666,0.206319
2.65,1.52237,1.36227,-0.408046,-0.510236,1,0.934782,0.708046,0.940638,1.32237,1.30627,0,0.0413246,0.0168222,-0.00154408,0.161901,0.162675,2.62,2.18908,0.205732
2.7,1.55611,1.40629,-0.34107,-0.457088,1,0.93645,0.64107,0.901986,1.35611,1.32747,0,0.0467531,0.0115824,-0.000406324,0.172822,0.165409,2.67,2.23231,0.204932
2.75,1.58645,1.45384,-0.272491,-0.39436,1,0.93888,0.572491,0.813887,1.38645,1.37777,0,0.0533552,0.0110653,-0.00319909,0.180077,0.169922,2.72,2.28111,0.204121
2.8,1.61333,1.49571,-0.202482,-0.333794,1,0.941041,0.502482,0.779313,1.41333,1.40367,0,0.053692,0.0116168,-0.00484701,0.180669,0.172612,2.77,2.32908,0.203732
2.85,1.63668,1.53479,-0.131217,-0.27168,1,0.942719,0.431217,0.687818,1.43668,1.44576,0,0.0404917,0.0140174,-0.00732069,0.186326,0.17362,2.82,2.37641,0.204287
2.9,1.65644,1.57104,-0.058874,-0.20799,1,0.943814,0.358874,0.604414,1.45644,1.47811,0,0.026761,0.0114219,-0.0100014,0.185977,0.177018,2.87,2.42523,0.206353
2.95,1.67255,1.60425,0.014366,-0.142693,1,0.944314,0.285634,0.545128,1.47255,1.49187,0,0.0262025,0.0132095,-0.00697586,0.18173,0.178019,2.92,2.47243,0.206894
3,1.68499,1.63984,0.08832,-0.0627246,1,0.944635,0.21168,0.458869,1.48499,1.51533,0,0.0150403,0.0126785,-0.0129587,0.190517,0.181249,2.97,2.53102,0.207793
3.05,1.69371,1.66428,0.162803,0.00073463,1,0.944669,0.137197,0.401194,1.49371,1.53253,0,0.0110859,0.0142738,-0.0135653,0.185752,0.186299,3.02,2.57431,0.209068
3.1,1.6987,1.68697,0.237629,0.0695543,1,0.94414,0.062371,0.31369,1.4987,1.54853,0,0.00329155,0.0177629,-0.00783005,0.193129,0.19078,3.07,2.62275,0.20976
3.15,1.69995,1.70748,0.312611,0.144192,1,0.943644,-0.012611,0.246268,1.49995,1.55178,0,-0.0015635,0.018302,-0.00948862,0.188098,0.191291,3.12,2.67529,0.210896
3.2,1.69744,1.72274,0.387561,0.214874,1,0.943243,-0.087561,0.147411,1.49744,1.55839,0,0.00153406,0.017209,-0.0113345,0.186575,0.193622,-3.11319,2.72256,0.210739
3.25,1.6912,1.73431,0.462293,0.28631,1,0.94315,-0.162293,0.0805341,1.4912,1.55724,0,0.0115396,0.0198041,-0.0124212,0.191605,0.19403,-3.06318,2.76923,0.209466
3.3,1.68122,1.74191,0.536619,0.358425,1,0.94355,-0.236619,-0.0355275,1.48122,1.55559,0,0.0238723,0.0201225,-0.00857749,0.199658,0.197634,-3.01319,2.81793,0.209291
3.35,1.66754,1.74619,0.610353,0.4457,1,0.944759,-0.310353,-0.128806,1.46754,1.55716,0,0.0255756,0.0211516,-0.00581014,0.196093,0.202011,-2.96319,2.8757,0.207898
3.4,1.6502,1.74546,0.683312,0.518457,1,0.945608,-0.383312,-0.190985,1.4502,1.54804,0,0.0301002,0.0235141,-0.0106249,0.202746,0.20288,-2.91318,2.92218,0.207875
3.45,1.62923,1.74051,0.755312,0.596533,1,0.946617,-0.455312,-0.287528,1.42923,1.53434,0,0.0271652,0.0224615,-0.00664654,0.198399,0.209553,-2.86319,2.97414,0.207634
3.5,1.60468,1.73248,0.826175,0.664728,1,0.947284,-0.526175,-0.354864,1.40468,1.531,0,0.0233199,0.0260902,-0.00594605,0.204796,0.206899,-2.81318,3.0184,0.2077
3.55,1.57663,1.7202,0.895722,0.737659,1,0.947931,-0.595722,-0.406637,1.37663,1.51072,0,0.0207971,0.0225945,-0.00610946,0.197491,0.209579,-2.76319,3.06641,0.208309
3.6,1.54514,1.70385,0.963781,0.810221,1,0.948246,-0.663781,-0.504768,1.34514,1.48821,0,0.0107998,0.021759,-0.0060198,0.192998,0.211878,-2.71319,3.11501,0.20978
3.65,1.51028,1.68209,1.03018,0.886952,1,0.948049,-0.73018,-0.617261,1.31028,1.45905,0,-0.00233342,0.0229722,-0.000256232,0.196515,0.206316,-2.66318,-3.11954,0.210074
3.7,1.47215,1.65412,1.09475,0.967692,1,0.94707,-0.794754,-0.661873,1.27215,1.43395,0,-0.00610212,0.0220046,0.00185917,0.191658,0.206541,-2.61319,-3.06448,0.211696
3.75,1.43084,1.62537,1.15734,1.03775,1,0.945871,-0.857342,-0.773162,1.23084,1.39264,0,-0.0161607,0.021158,0.00178985,0.195309,0.204445,-2.56318,-3.01835,0.212659
3.8,1.38645,1.59292,1.21779,1.10688,1,0.945062,-0.917787,-0.82805,1.18645,1.36291,0,-0.0115965,0.0205088,0.00374892,0.188687,0.205365,-2.51319,-2.96707,0.21253
3.85,1.3391,1.5566,1.27594,1.17469,1,0.944093,-0.975938,-0.936661,1.1391,1.30559,0,-0.0101387,0.0207077,0.00520632,0.195189,0.20193,-2.46319,-2.91824,0.212605
3.9,1.2889,1.51957,1.33165,1.23645,1,0.943478,-1.03165,-0.961827,1.0889,1.29578,0,-0.00437162,0.0168708,0.00579278,0.193945,0.201291,-2.41318,-2.87163,0.211759
3.95,1.23598,1.47362,1.38478,1.30551,1,0.942774,-1.08478,-1.05735,1.03598,1.22173,0,-0.00513059,0.0156465,0.00788044,0.18683,0.208355,-2.36319,-2.81969,0.211976
4,1.18047,1.4269,1.4352,1.36838,1,0.942101,-1.1352,-1.15494,0.980465,1.15686,0,-0.0115245,0.0136196,0.00385572,0.193887,0.205147,-2.31319,-2.7702,0.212872
4.05,1.1225,1.36647,1.48279,1.44125,1,0.94131,-1.18279,-1.18381,0.922504,1.1231,0,-0.00948676,0.0138868,-0.000794575,0.18841,0.201798,-2.26319,-2.71346,0.212667
4.1,1.06224,1.31269,1.52742,1.49955,1,0.940429,-1.22742,-1.26824,0.862236,1.05007,0,-0.0131432,0.0125014,-0.00380753,0.195871,0.195244,-2.21319,-2.66255,0.213188
4.15,0.999813,1.25622,1.56898,1.55552,1,0.939537,-1.26898,-1.29442,0.799813,1.01312,0,-0.0120652,0.0208191,-0.00471059,0.189931,0.196624,-2.16318,-2.61441,0.212942
4.2,0.935391,1.19709,1.60736,1.60935,1,0.938538,-1.30736,-1.37213,0.735391,0.935065,0,-0.0201607,0.0124057,-0.0011905,0.196267,0.199384,-2.11319,-2.56733,0.213563
4.25,0.869131,1.13513,1.64248,1.66042,1,0.937426,-1.34248,-1.39303,0.669131,0.890457,0,-0.0175613,0.00920144,-0.00391256,0.194525,0.199812,-2.06318,-2.51555,0.21402
4.3,0.801199,1.0707,1.67425,1.70876,1,0.936459,-1.37425,-1.46072,0.601199,0.804388,0,-0.0137223,0.00858159,-0.00740987,0.20366,0.200198,-2.01319,-2.46713,0.214162
4.35,0.731764,0.999577,1.70258,1.75718,1,0.935696,-1.40258,-1.47724,0.531764,0.758861,0,-0.00922151,0.00910015,-0.0100754,0.199218,0.200717,-1.96319,-2.41676,0.213228
4.4,0.660999,0.920965,1.7274,1.80474,1,0.935203,-1.4274,-1.53422,0.460999,0.667065,0,-0.00108248,0.00799615,-0.00985209,0.208389,0.200963,-1.91318,-2.36082,0.213032
4.45,0.589083,0.849884,1.74866,1.84321,1,0.93517,-1.44866,-1.54977,0.389083,0.619835,0,0.000728559,0.00896438,-0.0109746,0.204295,0.206038,-1.86319,-2.31076,0.21227
4.5,0.516194,0.781773,1.76629,1.87632,1,0.935134,-1.46629,-1.58881,0.316194,0.522415,0,0.0051072,0.0119808,-0.00327666,0.210365,0.205355,-1.81319,-2.26876,0.211445
4.55,0.442514,0.702442,1.78027,1.91049,1,0.935069,-1.48027,-1.61368,0.242514,0.432509,0,0.00608276,0.0115803,0.00158835,0.209121,0.206036,-1.76319,-2.22064,0.211754
4.6,0.368229,0.631391,1.79054,1.93672,1,0.935566,-1.49054,-1.62941,0.168229,0.365919,0,0.00930525,0.0077933,-0.00811723,0.206132,0.211313,-1.71318,-2.16869,0.211316
4.65,0.293523,0.549481,1.79708,1.96314,1,0.935312,-1.49708,-1.64269,0.093523,0.268249,0,0.00964717,0.01057,0.00487697,0.212552,0.225434,-1.66319,-2.11809,0.212208
4.7,0.218583,0.460672,1.79988,1.98608,1,0.935407,-1.49988,-1.65453,0.018583,0.203762,0,0.0055392,0.0103365,0.0018443,0.20763,0.224651,-1.61319,-2.06616,0.212536
4.75,0.143597,0.376056,1.79894,2.00316,1,0.935224,-1.49894,-1.65264,-0.056403,0.0832689,0,0.00205736,0.013546,6.05695e-05,0.213558,0.224045,-1.56319,-2.01669,0.213016
4.8,0.068752,0.296028,1.79425,2.0151,1,0.934844,-1.49425,-1.66221,-0.131248,0.0332861,0,-0.00294628,0.0131208,0.00399146,0.207441,0.232316,-1.51319,-1.96868,0.213804
4.85,-0.005766,0.215596,1.78582,2.02269,1,0.933973,-1.48582,-1.65333,-0.205766,-0.0688925,0,-0.00613567,0.015893,0.00302666,0.213039,0.232759,-1.46318,-1.92045,0.214524
4.9,-0.079769,0.139969,1.77368,2.0258,1,0.933253,-1.47368,-1.65482,-0.279769,-0.138401,0,-0.00891386,0.0156131,0.00986889,0.207084,0.226482,-1.41318,-1.87478,0.214658
4.95,-0.153072,0.058849,1.75785,2.02545,1,0.932553,-1.45785,-1.63106,-0.353072,-0.258844,0,-0.00799525,0.0140102,0.0185154,0.210761,0.223126,-1.36319,-1.8314,0.214716
5,-0.225493,-0.0278437,1.73839,2.02018,1,0.932013,-1.43839,-1.63513,-0.425493,-0.305472,0,-0.0100277,0.0152779,0.0122164,0.208475,0.219601,-1.31319,-1.77866,0.214621
5.05,-0.296851,-0.124958,1.71532,2.00872,1,0.931094,-1.41532,-1.59857,-0.496851,-0.42729,0,-0.00577855,0.0165882,0.0130294,0.201313,0.215567,-1.26319,-1.72512,0.213874
5.1,-0.366967,-0.200098,1.68872,1.99563,1,0.930616,-1.38872,-1.57799,-0.566967,-0.528987,0,-0.00544368,0.0175202,0.0145324,0.208544,0.213227,-1.21318,-1.67954,0.213833
5.15,-0.435665,-0.279869,1.65865,1.97756,1,0.93016,-1.35865,-1.55736,-0.635665,-0.575323,0,-0.00164081,0.0178625,0.00860749,0.204532,0.213931,-1.16318,-1.63138,0.213923
5.2,-0.502775,-0.363997,1.62518,1.95397,1,0.929396,-1.32518,-1.5182,-0.702775,-0.696448,0,-0.00590027,0.0173164,0.0201362,0.207226,0.212577,-1.11318,-1.58132,0.214307
5.25,-0.568128,-0.442027,1.5884,1.92738,1,0.928741,-1.2884,-1.48655,-0.768128,-0.758106,0,-0.00936853,0.0184981,0.0222463,0.212403,0.218959,-1.06319,-1.53311,0.214465
5.3,-0.631562,-0.518907,1.5484,1.89654,1,0.928319,-1.2484,-1.45201,-0.831562,-0.858999,0,-0.0147164,0.0142341,0.0142635,0.205638,0.218261,-1.01319,-1.48446,0.215243
5.35,-0.692916,-0.594164,1.50528,1.86191,1,0.927481,-1.20528,-1.40962,-0.892916,-0.922431,0,-0.012102,0.01365,0.0212527,0.196607,0.21204,-0.963185,-1.43704,0.215221
5.4,-0.752039,-0.677794,1.45915,1.81773,1,0.927574,-1.15915,-1.35828,-0.952039,-1.01143,0,-0.00939032,0.0144276,0.00762503,0.204418,0.212571,-0.913185,-1.38315,0.214833
5.45,-0.808783,-0.749583,1.41012,1.77449,1,0.927228,-1.11012,-1.3324,-1.00878,-1.05827,0,-0.00911804,0.0121975,0.0143401,0.199895,0.212009,-0.863185,-1.3332,0.214778
5.5,-0.863005,-0.823857,1.35831,1.72465,1,0.927174,-1.05831,-1.26962,-1.063,-1.15261,0,-0.0145943,0.0117911,0.00616988,0.204236,0.210891,-0.813185,-1.28399,0.214529
5.55,-0.91457,-0.886927,1.30386,1.67776,1,0.927208,-1.00386,-1.22555,-1.11457,-1.20903,0,-0.0221146,0.00965667,0.00204082,0.195971,0.213128,-0.763185,-1.23893,0.216483
5.6,-0.963349,-0.956607,1.2469,1.62052,1,0.926919,-0.9469,-1.1463,-1.16335,-1.2822,0,-0.0102987,0.0117028,0.00819488,0.203848,0.208523,-0.713185,-1.18599,0.215764
5.65,-1.00922,-1.01939,1.18757,1.56365,1,0.927109,-0.887573,-1.07061,-1.20922,-1.34138,0,0.00712134,0.00702438,0.0156668,0.201848,0.206065,-0.663185,-1.13628,0.213755
5.7,-1.05207,-1.07999,1.12603,1.50323,1,0.928099,-0.826028,-1.02105,-1.25207,-1.38987,0,0.0157539,0.00886431,0.00921581,0.198291,0.204654,-0.613185,-1.08516,0.211393
5.75,-1.09179,-1.14138,1.06242,1.43624,1,0.928803,-0.762419,-0.935418,-1.29179,-1.43359,0,0.0199591,0.00810226,0.0117778,0.206684,0.205565,-0.563185,-1.03623,0.21132
5.8,-1.12828,-1.20331,0.996903,1.36153,1,0.929967,-0.696903,-0.902003,-1.32828,-1.46089,0,0.0205107,0.0105079,0.00881981,0.206044,0.209649,-0.513185,-0.980511,0.210683
5.85,-1.16145,-1.25455,0.929646,1.29281,1,0.930597,-0.629646,-0.846782,-1.36145,-1.50043,0,0.018202,0.00997626,0.0109636,0.209817,0.208791,-0.463185,-0.932428,0.210845
5.9,-1.19122,-1.29951,0.860815,1.22657,1,0.931238,-0.560815,-0.760542,-1.39122,-1.54424,0,0.0144796,0.0106113,0.0073457,0.207559,0.210857,-0.413185,-0.886513,0.211234
5.95,-1.21751,-1.34748,0.790582,1.14839,1,0.931561,-0.490582,-0.647047,-1.41751,-1.59349,0,0.00594408,0.0104506,0.00974764,0.210801,0.213284,-0.363185,-0.833432,0.211819
6,-1.24026,-1.38625,0.719123,1.07795,1,0.931716,-0.419123,-0.605953,-1.44026,-1.61132,0,0.00657102,0.00824808,0.0115665,0.208513,0.209107,-0.313185,-0.790223,0.212226
6.05,-1.2594,-1.42901,0.646617,0.990076,1,0.932046,-0.346617,-0.491135,-1.4594,-1.64926,0,0.00597377,0.00744963,0.00885356,0.213211,0.210769,-0.263185,-0.736138,0.212205
